% Moku:Go Oscilloscope
% Channel A
% Channel B
% Time span 2.341 ms, time offset 0.000 s, Normal acquisition mode, no averaging
% Edge trigger: Channel A, level 0.000 V, Auto mode, Rising edge, Auto sensitivity, noise reject off, HF reject off
% Output A - Sine, 10.000 000 000 000 MHz, 1.000 0 Vpp, offset 0.000 0 V, phase 0.000 000 deg
% Acquired 2023-03-12 T 14:41:12 +1100
Time (s), Voltage (V), Freq (Hz), FFT (dBm)
-1.170432000000e-03, -8.741451e-01, 0.000000e+00, -4.024115e+01
-1.168128000000e-03, -8.671227e-01, 2.304000e-06, -1.863922e+01
-1.165824000000e-03, -8.597949e-01, 4.608000e-06, -2.323259e+00
-1.163520000000e-03, -8.523144e-01, 6.912000e-06, 5.608404e+00
-1.161216000000e-03, -8.446813e-01, 9.216000e-06, 9.297621e+00
-1.158912000000e-03, -8.368192e-01, 1.152000e-05, 9.891571e+00
-1.156608000000e-03, -8.288044e-01, 1.382400e-05, 7.610560e+00
-1.154304000000e-03, -8.205606e-01, 1.612800e-05, 1.953655e+00
-1.152000000000e-03, -8.122405e-01, 1.843200e-05, -9.547714e+00
-1.149696000000e-03, -8.037677e-01, 2.073600e-05, -2.533947e+01
-1.147392000000e-03, -7.949897e-01, 2.304000e-05, -2.439157e+01
-1.145088000000e-03, -7.862116e-01, 2.534400e-05, -3.692688e+01
-1.142784000000e-03, -7.771282e-01, 2.764800e-05, -3.311382e+01
-1.140480000000e-03, -7.679684e-01, 2.995200e-05, -4.499778e+01
-1.138176000000e-03, -7.585797e-01, 3.225600e-05, -3.938071e+01
-1.135872000000e-03, -7.491146e-01, 3.456000e-05, -5.136536e+01
-1.133568000000e-03, -7.394205e-01, 3.686400e-05, -4.430751e+01
-1.131264000000e-03, -7.295738e-01, 3.916800e-05, -5.659463e+01
-1.128960000000e-03, -7.196507e-01, 4.147200e-05, -4.834098e+01
-1.126656000000e-03, -7.094987e-01, 4.377600e-05, -6.114126e+01
-1.124352000000e-03, -6.991940e-01, 4.608000e-05, -5.177047e+01
-1.122048000000e-03, -6.887366e-01, 4.838400e-05, -6.526512e+01
-1.119744000000e-03, -6.782792e-01, 5.068800e-05, -5.480665e+01
-1.117440000000e-03, -6.675165e-01, 5.299200e-05, -6.862602e+01
-1.115136000000e-03, -6.566775e-01, 5.529600e-05, -5.737656e+01
-1.112832000000e-03, -6.456858e-01, 5.760000e-05, -7.237101e+01
-1.110528000000e-03, -6.345414e-01, 5.990400e-05, -5.985550e+01
-1.108224000000e-03, -6.233207e-01, 6.220800e-05, -7.526473e+01
-1.105920000000e-03, -6.119474e-01, 6.451200e-05, -6.201176e+01
-1.103616000000e-03, -6.004214e-01, 6.681600e-05, -7.798414e+01
-1.101312000000e-03, -5.888190e-01, 6.912000e-05, -6.403641e+01
-1.099008000000e-03, -5.769877e-01, 7.142400e-05, -8.039823e+01
-1.096704000000e-03, -5.651564e-01, 7.372800e-05, -6.576171e+01
-1.094400000000e-03, -5.530960e-01, 7.603200e-05, -8.346111e+01
-1.092096000000e-03, -5.410357e-01, 7.833600e-05, -6.752652e+01
-1.089792000000e-03, -5.288227e-01, 8.064000e-05, -8.597389e+01
-1.087488000000e-03, -5.164570e-01, 8.294400e-05, -6.912137e+01
-1.085184000000e-03, -5.040150e-01, 8.524800e-05, -8.879224e+01
-1.082880000000e-03, -4.914204e-01, 8.755200e-05, -7.075644e+01
-1.080576000000e-03, -4.787494e-01, 8.985600e-05, -8.984136e+01
-1.078272000000e-03, -4.660021e-01, 9.216000e-05, -7.200031e+01
-1.075968000000e-03, -4.531785e-01, 9.446400e-05, -9.415257e+01
-1.073664000000e-03, -4.402785e-01, 9.676800e-05, -7.357866e+01
-1.071360000000e-03, -4.271495e-01, 9.907200e-05, -9.277586e+01
-1.069056000000e-03, -4.140969e-01, 1.013760e-04, -7.463214e+01
-1.066752000000e-03, -4.008152e-01, 1.036800e-04, -9.541969e+01
-1.064448000000e-03, -3.875336e-01, 1.059840e-04, -7.551148e+01
-1.062144000000e-03, -3.740993e-01, 1.082880e-04, -1.062121e+02
-1.059840000000e-03, -3.606650e-01, 1.105920e-04, -7.774020e+01
-1.057536000000e-03, -3.471544e-01, 1.128960e-04, -9.485000e+01
-1.055232000000e-03, -3.335674e-01, 1.152000e-04, -7.758097e+01
-1.052928000000e-03, -3.198278e-01, 1.175040e-04, -1.108893e+02
-1.050624000000e-03, -3.060882e-01, 1.198080e-04, -7.972132e+01
-1.048320000000e-03, -2.922722e-01, 1.221120e-04, -9.717756e+01
-1.046016000000e-03, -2.784563e-01, 1.244160e-04, -8.023773e+01
-1.043712000000e-03, -2.644877e-01, 1.267200e-04, -1.015530e+02
-1.041408000000e-03, -2.505191e-01, 1.290240e-04, -8.054752e+01
-1.039104000000e-03, -2.364741e-01, 1.313280e-04, -1.043215e+02
-1.036800000000e-03, -2.223528e-01, 1.336320e-04, -8.284009e+01
-1.034496000000e-03, -2.082316e-01, 1.359360e-04, -1.046049e+02
-1.032192000000e-03, -1.940340e-01, 1.382400e-04, -8.282546e+01
-1.029888000000e-03, -1.798364e-01, 1.405440e-04, -1.091286e+02
-1.027584000000e-03, -1.655624e-01, 1.428480e-04, -8.368145e+01
-1.025280000000e-03, -1.512885e-01, 1.451520e-04, -1.007840e+02
-1.022976000000e-03, -1.369382e-01, 1.474560e-04, -8.482724e+01
-1.020672000000e-03, -1.225879e-01, 1.497600e-04, -1.092292e+02
-1.018368000000e-03, -1.082377e-01, 1.520640e-04, -8.649153e+01
-1.016064000000e-03, -9.381107e-02, 1.543680e-04, -1.009310e+02
-1.013760000000e-03, -7.938447e-02, 1.566720e-04, -8.538588e+01
-1.011456000000e-03, -6.495787e-02, 1.589760e-04, -1.067172e+02
-1.009152000000e-03, -5.045494e-02, 1.612800e-04, -8.765065e+01
-1.006848000000e-03, -3.602834e-02, 1.635840e-04, -1.116239e+02
-1.004544000000e-03, -2.160174e-02, 1.658880e-04, -8.688367e+01
-1.002240000000e-03, -7.098803e-03, 1.681920e-04, -1.027913e+02
-9.999360000000e-04, 7.404128e-03, 1.704960e-04, -8.955601e+01
-9.976320000000e-04, 2.190706e-02, 1.728000e-04, -1.102138e+02
-9.953280000000e-04, 3.633366e-02, 1.751040e-04, -9.104909e+01
-9.930240000000e-04, 5.076026e-02, 1.774080e-04, -1.021199e+02
-9.907200000000e-04, 6.526319e-02, 1.797120e-04, -8.795852e+01
-9.884160000000e-04, 7.968979e-02, 1.820160e-04, -1.014277e+02
-9.861120000000e-04, 9.411639e-02, 1.843200e-04, -9.216495e+01
-9.838080000000e-04, 1.084667e-01, 1.866240e-04, -1.294815e+02
-9.815040000000e-04, 1.228933e-01, 1.889280e-04, -9.246808e+01
-9.792000000000e-04, 1.372435e-01, 1.912320e-04, -1.044114e+02
-9.768960000000e-04, 1.515938e-01, 1.935360e-04, -8.917562e+01
-9.745920000000e-04, 1.658677e-01, 1.958400e-04, -9.901603e+01
-9.722880000000e-04, 1.800653e-01, 1.981440e-04, -9.620454e+01
-9.699840000000e-04, 1.943393e-01, 2.004480e-04, -1.017372e+02
-9.676800000000e-04, 2.084606e-01, 2.027520e-04, -9.171306e+01
-9.653760000000e-04, 2.226582e-01, 2.050560e-04, -1.036312e+02
-9.630720000000e-04, 2.367031e-01, 2.073600e-04, -9.452355e+01
-9.607680000000e-04, 2.508244e-01, 2.096640e-04, -1.100579e+02
-9.584640000000e-04, 2.647167e-01, 2.119680e-04, -9.444336e+01
-9.561600000000e-04, 2.786853e-01, 2.142720e-04, -1.119388e+02
-9.538560000000e-04, 2.925776e-01, 2.165760e-04, -9.314537e+01
-9.515520000000e-04, 3.063172e-01, 2.188800e-04, -9.983321e+01
-9.492480000000e-04, 3.201331e-01, 2.211840e-04, -9.400182e+01
-9.469440000000e-04, 3.338728e-01, 2.234880e-04, -9.710870e+01
-9.446400000000e-04, 3.473834e-01, 2.257920e-04, -9.307144e+01
-9.423360000000e-04, 3.609703e-01, 2.280960e-04, -9.731720e+01
-9.400320000000e-04, 3.744046e-01, 2.304000e-04, -9.890775e+01
-9.377280000000e-04, 3.877626e-01, 2.327040e-04, -1.002053e+02
-9.354240000000e-04, 4.010442e-01, 2.350080e-04, -9.342439e+01
-9.331200000000e-04, 4.142495e-01, 2.373120e-04, -1.027063e+02
-9.308160000000e-04, 4.274548e-01, 2.396160e-04, -1.026314e+02
-9.285120000000e-04, 4.404311e-01, 2.419200e-04, -1.046415e+02
-9.262080000000e-04, 4.534074e-01, 2.442240e-04, -9.569676e+01
-9.239040000000e-04, 4.663074e-01, 2.465280e-04, -1.148035e+02
-9.216000000000e-04, 4.790547e-01, 2.488320e-04, -9.519671e+01
-9.192960000000e-04, 4.917257e-01, 2.511360e-04, -1.000017e+02
-9.169920000000e-04, 5.042440e-01, 2.534400e-04, -1.039648e+02
-9.146880000000e-04, 5.166860e-01, 2.557440e-04, -1.021770e+02
-9.123840000000e-04, 5.290517e-01, 2.580480e-04, -9.645104e+01
-9.100800000000e-04, 5.412647e-01, 2.603520e-04, -1.016699e+02
-9.077760000000e-04, 5.534013e-01, 2.626560e-04, -9.927114e+01
-9.054720000000e-04, 5.653853e-01, 2.649600e-04, -1.057102e+02
-9.031680000000e-04, 5.772930e-01, 2.672640e-04, -1.015805e+02
-9.008640000000e-04, 5.889717e-01, 2.695680e-04, -1.079103e+02
-8.985600000000e-04, 6.006504e-01, 2.718720e-04, -9.577913e+01
-8.962560000000e-04, 6.121764e-01, 2.741760e-04, -9.996228e+01
-8.939520000000e-04, 6.234734e-01, 2.764800e-04, -1.207592e+02
-8.916480000000e-04, 6.348468e-01, 2.787840e-04, -1.024704e+02
-8.893440000000e-04, 6.459148e-01, 2.810880e-04, -9.618952e+01
-8.870400000000e-04, 6.569065e-01, 2.833920e-04, -1.025957e+02
-8.847360000000e-04, 6.677455e-01, 2.856960e-04, -1.085252e+02
-8.824320000000e-04, 6.784319e-01, 2.880000e-04, -1.101401e+02
-8.801280000000e-04, 6.890419e-01, 2.903040e-04, -1.035244e+02
-8.778240000000e-04, 6.994230e-01, 2.926080e-04, -1.043402e+02
-8.755200000000e-04, 7.096514e-01, 2.949120e-04, -9.613197e+01
-8.732160000000e-04, 7.198034e-01, 2.972160e-04, -9.947733e+01
-8.709120000000e-04, 7.298028e-01, 2.995200e-04, -1.065288e+02
-8.686080000000e-04, 7.396495e-01, 3.018240e-04, -1.019871e+02
-8.663040000000e-04, 7.492673e-01, 3.041280e-04, -9.936787e+01
-8.640000000000e-04, 7.588087e-01, 3.064320e-04, -1.027719e+02
-8.616960000000e-04, 7.681211e-01, 3.087360e-04, -9.916041e+01
-8.593920000000e-04, 7.772808e-01, 3.110400e-04, -1.048730e+02
-8.570880000000e-04, 7.863642e-01, 3.133440e-04, -1.307809e+02
-8.547840000000e-04, 7.952187e-01, 3.156480e-04, -1.023397e+02
-8.524800000000e-04, 8.039204e-01, 3.179520e-04, -9.538671e+01
-8.501760000000e-04, 8.123932e-01, 3.202560e-04, -9.721811e+01
-8.478720000000e-04, 8.207896e-01, 3.225600e-04, -1.027350e+02
-8.455680000000e-04, 8.289570e-01, 3.248640e-04, -1.094751e+02
-8.432640000000e-04, 8.369718e-01, 3.271680e-04, -1.097935e+02
-8.409600000000e-04, 8.448339e-01, 3.294720e-04, -1.069366e+02
-8.386560000000e-04, 8.524671e-01, 3.317760e-04, -9.935246e+01
-8.363520000000e-04, 8.599475e-01, 3.340800e-04, -1.003064e+02
-8.340480000000e-04, 8.671990e-01, 3.363840e-04, -1.025697e+02
-8.317440000000e-04, 8.742978e-01, 3.386880e-04, -1.044166e+02
-8.294400000000e-04, 8.812439e-01, 3.409920e-04, -1.061616e+02
-8.271360000000e-04, 8.880374e-01, 3.432960e-04, -1.075711e+02
-8.248320000000e-04, 8.945256e-01, 3.456000e-04, -9.832720e+01
-8.225280000000e-04, 9.010137e-01, 3.479040e-04, -1.014150e+02
-8.202240000000e-04, 9.071966e-01, 3.502080e-04, -1.140484e+02
-8.179200000000e-04, 9.131504e-01, 3.525120e-04, -1.126556e+02
-8.156160000000e-04, 9.189516e-01, 3.548160e-04, -1.029099e+02
-8.133120000000e-04, 9.246001e-01, 3.571200e-04, -1.019184e+02
-8.110080000000e-04, 9.300196e-01, 3.594240e-04, -1.006276e+02
-8.087040000000e-04, 9.352101e-01, 3.617280e-04, -9.908717e+01
-8.064000000000e-04, 9.402480e-01, 3.640320e-04, -9.870379e+01
-8.040960000000e-04, 9.450568e-01, 3.663360e-04, -1.048325e+02
-8.017920000000e-04, 9.496367e-01, 3.686400e-04, -1.106746e+02
-7.994880000000e-04, 9.541403e-01, 3.709440e-04, -1.163738e+02
-7.971840000000e-04, 9.583385e-01, 3.732480e-04, -1.134404e+02
-7.948800000000e-04, 9.623840e-01, 3.755520e-04, -1.085178e+02
-7.925760000000e-04, 9.662006e-01, 3.778560e-04, -1.026946e+02
-7.902720000000e-04, 9.697882e-01, 3.801600e-04, -1.055254e+02
-7.879680000000e-04, 9.732231e-01, 3.824640e-04, -1.075064e+02
-7.856640000000e-04, 9.765053e-01, 3.847680e-04, -1.004383e+02
-7.833600000000e-04, 9.794822e-01, 3.870720e-04, -9.744643e+01
-7.810560000000e-04, 9.823065e-01, 3.893760e-04, -1.006047e+02
-7.787520000000e-04, 9.849017e-01, 3.916800e-04, -1.117698e+02
-7.764480000000e-04, 9.872680e-01, 3.939840e-04, -1.007910e+02
-7.741440000000e-04, 9.894816e-01, 3.962880e-04, -9.705664e+01
-7.718400000000e-04, 9.914662e-01, 3.985920e-04, -9.873772e+01
-7.695360000000e-04, 9.932218e-01, 4.008960e-04, -1.066476e+02
-7.672320000000e-04, 9.948248e-01, 4.032000e-04, -1.051973e+02
-7.649280000000e-04, 9.961988e-01, 4.055040e-04, -9.804812e+01
-7.626240000000e-04, 9.973437e-01, 4.078080e-04, -9.801939e+01
-7.603200000000e-04, 9.983360e-01, 4.101120e-04, -1.004550e+02
-7.580160000000e-04, 9.990230e-01, 4.124160e-04, -1.032556e+02
-7.557120000000e-04, 9.995573e-01, 4.147200e-04, -1.042000e+02
-7.534080000000e-04, 9.998627e-01, 4.170240e-04, -1.081087e+02
-7.511040000000e-04, 9.999390e-01, 4.193280e-04, -1.163098e+02
-7.488000000000e-04, 9.998627e-01, 4.216320e-04, -1.102846e+02
-7.464960000000e-04, 9.995573e-01, 4.239360e-04, -1.037061e+02
-7.441920000000e-04, 9.990230e-01, 4.262400e-04, -1.029803e+02
-7.418880000000e-04, 9.983360e-01, 4.285440e-04, -1.039254e+02
-7.395840000000e-04, 9.973437e-01, 4.308480e-04, -1.007641e+02
-7.372800000000e-04, 9.961988e-01, 4.331520e-04, -9.775911e+01
-7.349760000000e-04, 9.948248e-01, 4.354560e-04, -9.926153e+01
-7.326720000000e-04, 9.932218e-01, 4.377600e-04, -1.046808e+02
-7.303680000000e-04, 9.914662e-01, 4.400640e-04, -1.031182e+02
-7.280640000000e-04, 9.894816e-01, 4.423680e-04, -9.846018e+01
-7.257600000000e-04, 9.872680e-01, 4.446720e-04, -9.864060e+01
-7.234560000000e-04, 9.849017e-01, 4.469760e-04, -1.029932e+02
-7.211520000000e-04, 9.823065e-01, 4.492800e-04, -1.032178e+02
-7.188480000000e-04, 9.794822e-01, 4.515840e-04, -9.859862e+01
-7.165440000000e-04, 9.765053e-01, 4.538880e-04, -9.739653e+01
-7.142400000000e-04, 9.732231e-01, 4.561920e-04, -9.706210e+01
-7.119360000000e-04, 9.697882e-01, 4.584960e-04, -9.694920e+01
-7.096320000000e-04, 9.662006e-01, 4.608000e-04, -9.727190e+01
-7.073280000000e-04, 9.623840e-01, 4.631040e-04, -9.695122e+01
-7.050240000000e-04, 9.583385e-01, 4.654080e-04, -9.515569e+01
-7.027200000000e-04, 9.541403e-01, 4.677120e-04, -9.466909e+01
-7.004160000000e-04, 9.496367e-01, 4.700160e-04, -9.553366e+01
-6.981120000000e-04, 9.449805e-01, 4.723200e-04, -9.656201e+01
-6.958080000000e-04, 9.401716e-01, 4.746240e-04, -9.808306e+01
-6.935040000000e-04, 9.351338e-01, 4.769280e-04, -1.009597e+02
-6.912000000000e-04, 9.300196e-01, 4.792320e-04, -1.016530e+02
-6.888960000000e-04, 9.246001e-01, 4.815360e-04, -1.026109e+02
-6.865920000000e-04, 9.188752e-01, 4.838400e-04, -1.077544e+02
-6.842880000000e-04, 9.131504e-01, 4.861440e-04, -1.150935e+02
-6.819840000000e-04, 9.071202e-01, 4.884480e-04, -1.100412e+02
-6.796800000000e-04, 9.009374e-01, 4.907520e-04, -1.017766e+02
-6.773760000000e-04, 8.945256e-01, 4.930560e-04, -9.815315e+01
-6.750720000000e-04, 8.880374e-01, 4.953600e-04, -9.646189e+01
-6.727680000000e-04, 8.812439e-01, 4.976640e-04, -9.599042e+01
-6.704640000000e-04, 8.742978e-01, 4.999680e-04, -9.855602e+01
-6.681600000000e-04, 8.671990e-01, 5.022720e-04, -1.032969e+02
-6.658560000000e-04, 8.599475e-01, 5.045760e-04, -1.036175e+02
-6.635520000000e-04, 8.523907e-01, 5.068800e-04, -1.019652e+02
-6.612480000000e-04, 8.447576e-01, 5.091840e-04, -1.033365e+02
-6.589440000000e-04, 8.368955e-01, 5.114880e-04, -1.094800e+02
-6.566400000000e-04, 8.288807e-01, 5.137920e-04, -1.125630e+02
-6.543360000000e-04, 8.207133e-01, 5.160960e-04, -1.082126e+02
-6.520320000000e-04, 8.123932e-01, 5.184000e-04, -1.108075e+02
-6.497280000000e-04, 8.038441e-01, 5.207040e-04, -1.099307e+02
-6.474240000000e-04, 7.951423e-01, 5.230080e-04, -1.037391e+02
-6.451200000000e-04, 7.862879e-01, 5.253120e-04, -1.008324e+02
-6.428160000000e-04, 7.772808e-01, 5.276160e-04, -9.876637e+01
-6.405120000000e-04, 7.680447e-01, 5.299200e-04, -9.840907e+01
-6.382080000000e-04, 7.587323e-01, 5.322240e-04, -1.016644e+02
-6.359040000000e-04, 7.491909e-01, 5.345280e-04, -1.063785e+02
-6.336000000000e-04, 7.395732e-01, 5.368320e-04, -1.037205e+02
-6.312960000000e-04, 7.297265e-01, 5.391360e-04, -1.010728e+02
-6.289920000000e-04, 7.198034e-01, 5.414400e-04, -9.952234e+01
-6.266880000000e-04, 7.096514e-01, 5.437440e-04, -1.001879e+02
-6.243840000000e-04, 6.993466e-01, 5.460480e-04, -1.047818e+02
-6.220800000000e-04, 6.888893e-01, 5.483520e-04, -1.013607e+02
-6.197760000000e-04, 6.784319e-01, 5.506560e-04, -9.832481e+01
-6.174720000000e-04, 6.676692e-01, 5.529600e-04, -9.910940e+01
-6.151680000000e-04, 6.568301e-01, 5.552640e-04, -1.022310e+02
-6.128640000000e-04, 6.458385e-01, 5.575680e-04, -1.042217e+02
-6.105600000000e-04, 6.346941e-01, 5.598720e-04, -1.000668e+02
-6.082560000000e-04, 6.234734e-01, 5.621760e-04, -9.937512e+01
-6.059520000000e-04, 6.121001e-01, 5.644800e-04, -1.062728e+02
-6.036480000000e-04, 6.005740e-01, 5.667840e-04, -1.100097e+02
-6.013440000000e-04, 5.889717e-01, 5.690880e-04, -1.051114e+02
-5.990400000000e-04, 5.771404e-01, 5.713920e-04, -1.136829e+02
-5.967360000000e-04, 5.653090e-01, 5.736960e-04, -1.077756e+02
-5.944320000000e-04, 5.533250e-01, 5.760000e-04, -1.015631e+02
-5.921280000000e-04, 5.412647e-01, 5.783040e-04, -9.966884e+01
-5.898240000000e-04, 5.289754e-01, 5.806080e-04, -1.008789e+02
-5.875200000000e-04, 5.166097e-01, 5.829120e-04, -1.052787e+02
-5.852160000000e-04, 5.041677e-01, 5.852160e-04, -1.075165e+02
-5.829120000000e-04, 4.915731e-01, 5.875200e-04, -1.092147e+02
-5.806080000000e-04, 4.789021e-01, 5.898240e-04, -1.102999e+02
-5.783040000000e-04, 4.661548e-01, 5.921280e-04, -1.079073e+02
-5.760000000000e-04, 4.533311e-01, 5.944320e-04, -1.012537e+02
-5.736960000000e-04, 4.404311e-01, 5.967360e-04, -9.822541e+01
-5.713920000000e-04, 4.273785e-01, 5.990400e-04, -9.832709e+01
-5.690880000000e-04, 4.142495e-01, 6.013440e-04, -1.005636e+02
-5.667840000000e-04, 4.010442e-01, 6.036480e-04, -1.051020e+02
-5.644800000000e-04, 3.877626e-01, 6.059520e-04, -1.093532e+02
-5.621760000000e-04, 3.743283e-01, 6.082560e-04, -1.066274e+02
-5.598720000000e-04, 3.608177e-01, 6.105600e-04, -1.063746e+02
-5.575680000000e-04, 3.473071e-01, 6.128640e-04, -1.069395e+02
-5.552640000000e-04, 3.337201e-01, 6.151680e-04, -1.076872e+02
-5.529600000000e-04, 3.200568e-01, 6.174720e-04, -1.138111e+02
-5.506560000000e-04, 3.063172e-01, 6.197760e-04, -1.134298e+02
-5.483520000000e-04, 2.924249e-01, 6.220800e-04, -1.054325e+02
-5.460480000000e-04, 2.786090e-01, 6.243840e-04, -1.069960e+02
-5.437440000000e-04, 2.647167e-01, 6.266880e-04, -1.207891e+02
-5.414400000000e-04, 2.506717e-01, 6.289920e-04, -1.061553e+02
-5.391360000000e-04, 2.366268e-01, 6.312960e-04, -1.009912e+02
-5.368320000000e-04, 2.225818e-01, 6.336000e-04, -9.924437e+01
-5.345280000000e-04, 2.084606e-01, 6.359040e-04, -9.950937e+01
-5.322240000000e-04, 1.942630e-01, 6.382080e-04, -1.026563e+02
-5.299200000000e-04, 1.799890e-01, 6.405120e-04, -1.125056e+02
-5.276160000000e-04, 1.657914e-01, 6.428160e-04, -1.148914e+02
-5.253120000000e-04, 1.514411e-01, 6.451200e-04, -1.075366e+02
-5.230080000000e-04, 1.370909e-01, 6.474240e-04, -1.051389e+02
-5.207040000000e-04, 1.227406e-01, 6.497280e-04, -1.056338e+02
-5.184000000000e-04, 1.083903e-01, 6.520320e-04, -1.074040e+02
-5.160960000000e-04, 9.404006e-02, 6.543360e-04, -1.026121e+02
-5.137920000000e-04, 7.961346e-02, 6.566400e-04, -9.888940e+01
-5.114880000000e-04, 6.511053e-02, 6.589440e-04, -9.682319e+01
-5.091840000000e-04, 5.076026e-02, 6.612480e-04, -9.529831e+01
-5.068800000000e-04, 3.625733e-02, 6.635520e-04, -9.480512e+01
-5.045760000000e-04, 2.175440e-02, 6.658560e-04, -9.641290e+01
-5.022720000000e-04, 7.251466e-03, 6.681600e-04, -1.008238e+02
-4.999680000000e-04, -7.251466e-03, 6.704640e-04, -1.081049e+02
-4.976640000000e-04, -2.160174e-02, 6.727680e-04, -1.108480e+02
-4.953600000000e-04, -3.610467e-02, 6.750720e-04, -1.060700e+02
-4.930560000000e-04, -5.060760e-02, 6.773760e-04, -1.032171e+02
-4.907520000000e-04, -6.503420e-02, 6.796800e-04, -1.029064e+02
-4.884480000000e-04, -7.946080e-02, 6.819840e-04, -1.052414e+02
-4.861440000000e-04, -9.388740e-02, 6.842880e-04, -1.098135e+02
-4.838400000000e-04, -1.083140e-01, 6.865920e-04, -1.087377e+02
-4.815360000000e-04, -1.226643e-01, 6.888960e-04, -1.059271e+02
-4.792320000000e-04, -1.370909e-01, 6.912000e-04, -1.069491e+02
-4.769280000000e-04, -1.513648e-01, 6.935040e-04, -1.138632e+02
-4.746240000000e-04, -1.656387e-01, 6.958080e-04, -1.109105e+02
-4.723200000000e-04, -1.799127e-01, 6.981120e-04, -1.064605e+02
-4.700160000000e-04, -1.941103e-01, 7.004160e-04, -1.049751e+02
-4.677120000000e-04, -2.083079e-01, 7.027200e-04, -1.059755e+02
-4.654080000000e-04, -2.224292e-01, 7.050240e-04, -1.124748e+02
-4.631040000000e-04, -2.365505e-01, 7.073280e-04, -1.133026e+02
-4.608000000000e-04, -2.505191e-01, 7.096320e-04, -1.043265e+02
